# Sky emission Line List 8778.607A - 25339.107A
# units Angstrom
# wavelengths in IN VACUUM
#
# This list is a composite list of skylines derived from a reverse
# engineered ESO model sky spectrum for the 0.8778 to 1.0um region,
# the ISAAC medium resolution mode sky spectra which has both O2 and
# OH lines identified. The OH lines were based on the work done by
# Rousselot et al., 2000, A & A. (http://www.eso.org/instruments/isaac/tools/oh/list_v2.0.dat)
#
# Because of the very high resolution OH line list from Rousselot et al,
# the list was then modified removing lines that could not be identified
# with the medium resolution mode on ISAAC. Because of the lower 
# resolution R=2000 mode of GNIRS, the blended lines will be identified
# by the strongest line in the blend.
#
#Created by P. Ingraham Apr, 06/05
#
8778.607
8780.768
8793.585
8827.885
8829.525
8835.440
8836.503
8836.910
8838.885
8852.202
8852.295
8865.263
8869.927
8870.068
8888.341
8905.589
8921.982
8922.185
8945.856
8960.705
8984.653
8985.233
8990.782
9003.586
9004.048
9021.086
9021.401
9025.099
9025.820
9040.433
9040.643
9051.716
9052.329
9094.894
9095.224
9104.878
9105.657
9154.297
9163.188
9164.146
9173.266
9173.938
9176.628
9177.868
9218.805
9219.410
9226.777
9227.930
9288.597
9289.359
9295.798
9297.159
9308.562
9309.952
9311.553
9311.955
9313.377
9315.416
9315.931
9320.310
9324.989
9325.024
9326.264
9326.310
9333.053
9333.134
9333.560
9333.738
9340.404
9340.428
9350.847
9351.127
9351.159
9352.088
9352.375
9352.854
9363.874
9364.808
9370.422
9372.010
9374.293
9374.683
9374.717
9375.452
9375.944
9376.361
9376.874
9376.907
9377.128
9378.526
9378.540
9379.049
9385.458
9385.513
9389.260
9389.307
9399.641
9399.697
9403.802
9403.920
9404.609
9404.713
9405.281
9405.848
9419.296
9419.331
9422.257
9422.370
9424.773
9424.954
9438.648
9438.871
9440.266
9441.006
9442.294
9461.161
9479.392
9479.735
9480.209
9480.602
9481.090
9482.025
9505.418
9510.441
9510.583
9515.774
9516.301
9521.793
9522.139
9526.229
9526.715
9527.968
9529.124
9531.794
9533.114
9537.306
9539.408
9551.668
9551.902
9555.110
9556.765
9557.444
9569.714
9570.213
9579.396
9580.045
9581.148
9582.550
9598.496
9598.840
9603.340
9604.191
9610.261
9610.463
9623.270
9623.938
9624.949
9626.490
9630.047
9632.439
9639.166
9639.999
9651.084
9651.556
9654.108
9654.275
9655.690
9655.863
9656.059
9656.561
9657.172
9657.371
9658.145
9661.630
9661.838
9662.974
9663.182
9663.360
9665.396
9670.988
9671.322
9671.524
9673.570
9676.818
9676.957
9682.607
9683.466
9684.994
9688.184
9688.485
9693.203
9701.923
9702.073
9707.274
9707.717
9709.623
9710.241
9713.970
9714.374
9715.234
9722.447
9724.624
9726.406
9729.360
9730.699
9731.066
9731.327
9732.069
9737.459
9737.938
9740.727
9747.888
9748.953
9758.650
9759.027
9759.388
9774.336
9775.120
9778.451
9779.958
9790.997
9791.156
9792.110
9793.797
9799.240
9802.337
9809.871
9810.890
9814.633
9819.289
9820.581
9826.957
9830.848
9831.152
9833.196
9835.567
9838.623
9845.478
9846.450
9847.272
9849.376
9851.245
9871.902
9874.921
9875.459
9875.753
9888.457
9889.279
9897.437
9898.556
9900.585
9904.012
9904.398
9917.249
9917.532
9923.342
9924.526
9927.039
9929.119
9933.619
9933.839
9936.818
9937.312
9944.386
9944.915
9947.234
9947.957
9948.127
9949.261
9950.418
9951.130
9952.350
9952.498
9959.413
9962.996
9963.142
9964.447
9964.877
9970.969
9971.271
9973.478
9973.949
9974.560
9975.079
10002.832
10014.064
10015.548
10028.228
10046.206
10061.619
10063.407
10073.263
10085.288
10106.323
10126.898
10161.366
10167.231
10174.806
10183.783
10192.425
10205.839
10211.545
10213.802
10228.815
10233.429
10273.805
10287.600
10295.328
10298.867
10312.298
10330.050
10342.700
10350.193
10375.799
10399.360
10421.218
10430.79
10432.012
10453.365
10471.830
10512.01
10527.657
10575.4
10588.762
10643.675
10655.7
10690.996
10695.09
10700.0
10706.4
10713.68
10723.35
10731.7
10746.152
10753.92
10775.06
10832.257
10834.289
10844.693
10898.68
10926.43
10951.348
10975.33
11009.29
11029.81
11072.45
11090.0
11140.9
11156.03
11214.803
11299.44
11306.335
11312.85
11331.19
11354.235
11377.135
11439.9
11468.32
11538.7
11565.2
11591.7
11627.8
11650.75
11696.35
11716.2
11770.8
11788.0
11865.9
11967.9
11983.3
12000.1
12007.1
12024.2
12031.6
12055.9
12122.6
12135.9
12155.0
12179.9
12196.4
12229.3
12257.8
12287.0
12325.9
12351.6
12400.88
12423.35
12482.7
12502.9
12589.6
12683.0 # Blend
12752.8
12764.4
12777.1
12782.6
12807.0
12834.6
12905.7
12921.13
12943.18
12972.13
12985.7
13021.6
13052.74
13085.3
13127.82
13156.79
13210.8
13236.52
13301.9
13324.13
13420.8
14086.7
14102.7
14107.0
14134.0
14162.96
14186.06
14266.36
14292.3
14343 # Blend
14356.7
14404.2
14519.0
14604.8
14665.07
14698.4
14755.6
14772.383
14783.7
14833.09
14864.40
14886.17
14931.9
15055.55
15064.00
15088.28
15187.14
15240.9
15287.8
15332.4
15395.3
15431  # Blend
15462.1
15474.2
15500.86
15509.77
15517.9
15540.4
15546.2
15570.16
15597.63
15631.4
15655.0
15657.75
15702.54
15833.27
15972.6
16030.28
16079.8
16128.61
16194.62
16235.37
16302.28
16317.16
16341.76
16351.9
16360.39
16388.5
16414.74
16442.16
16447.6
16479.1
16502.37
16553.81
16612.05
16692.38
16708.85
16733.66
16840.48
16903.68
16955.08
17008.76
17078.36
17123.66
17210.32
17247.9
17282.9
17303.37
17330.87
17351.15
17359.7
17386.7
17427.0
17449.97
17505.90
17528.608
17653.22
17664.88
17698.44
17811.48
17880.3
17993.96
18067.93
18119.0
18254.95
18459.58
18796.411
19193.53
19250.865
19350.1
19399.96
19518.439
19560.0
19593.4
19618.7
19642.5
19677.998
19698.9
19702.08
19737.5
19751.51
19771.86
19839.73
19892.97
20008.2
20033.2
20068.995
20193.227
20275.84
20339.497
20412.68
20499.36
20562.96
20672.84
20728.17
20860.24
20908.45
21062.09
21067.93
21096.6
21104.27
21115.85
21156.12
21176.557
21232.42
21249.59
21278.2
21319.6
21325.97
21505.044
21507.308
21512.1
21537.522
21580.64
21711.17
21802.31
21873.52
21955.637
22052.37
22124.875
22247.81
22311.8
22460.26
22516.727
22691.0
22742.0
22939.947
22986.0
23172.8
23225.0
23401.7
23451.6
23512.0
23580.016
#23582.7
23584.869
23641.8
23677.6
23711.9
23773.9
23837.9
23839.762
23846.436
23865.8
23913.1
23968.2
24002.7
24043.7
24071.4
24078.689
24098.7
24158.0
24190.2
24357.0
24466.0
24509.8
24545.3
24630.5
24679.2
24724.9
24809.6
24842.3
24879.3
24947.0
25035.0
25058.3
25114.9
25162.9
25301.242
25308.863
25327.279
25339.107
