# Sky emission Line List 8778.607A - 25339.107A
# units Angstrom
# wavelengths in IN VACUUM
#
# This list is a composite list of skylines derived from a reverse
# engineered ESO model sky spectrum for the 0.8778 to 1.0um region,
# the ISAAC medium resolution mode sky spectra which has both O2 and
# OH lines identified. The OH lines were based on the work done by
# Rousselot et al., 2000, A & A. (http://www.eso.org/instruments/isaac/tools/oh/list_v2.0.dat)
#
# Because of the very high resolution OH line list from Rousselot et al,
# the list was then modified removing lines that could not be identified
# with the medium resolution mode on ISAAC. Because of the lower 
# resolution R=2000 mode of GNIRS, the blended lines will be identified
# by the strongest line in the blend.
#
#Created by P. Ingraham Apr, 06/05
#
8778.607
8780.768
8793.585
8827.885
8829.525
8835.440
8836.503
8836.910
8838.885
8852.202
8852.295
8865.263
8869.927
8870.068
8888.341
8905.589
8921.982
8922.185
8945.856
8960.705
8984.653
8985.233
8990.782
9003.586
9004.048
9021.086
9021.401
9025.099
9025.820
9040.433
9040.643
9051.716
9052.329
9094.894
9095.224
9104.878
9105.657
9154.297
9163.188
9164.146
9173.266
9173.938
9176.628
9177.868
9218.805
9219.410
9226.777
9227.930
9288.597
9289.359
9295.798
9297.159
9308.562
9309.952
9311.553
9311.955
9313.377
9315.416
9315.931
9320.310
9324.989
9325.024
9326.264
9326.310
9333.053
9333.134
9333.560
9333.738
9340.404
9340.428
9350.847
9351.127
9351.159
9352.088
9352.375
9352.854
9363.874
9364.808
9370.422
9372.010
9374.293
9374.683
9374.717
9375.452
9375.944
9376.361
9376.874
9376.907
9377.128
9378.526
9378.540
9379.049
9385.458
9385.513
9389.260
9389.307
9399.641
9399.697
9403.802
9403.920
9404.609
9404.713
9405.281
9405.848
9419.296
9419.331
9422.257
9422.370
9424.773
9424.954
9438.648
9438.871
9440.266
9441.006
9442.294
9461.161
9479.392
9479.735
9480.209
9480.602
9481.090
9482.025
9505.418
9510.441
9510.583
9515.774
9516.301
9521.793
9522.139
9526.229
9526.715
9527.968
9529.124
9531.794
9533.114
9537.306
9539.408
9551.668
9551.902
9555.110
9556.765
9557.444
9569.714
9570.213
9579.396
9580.045
9581.148
9582.550
9598.496
9598.840
9603.340
9604.191
9610.261
9610.463
9623.270
9623.938
9624.949
9626.490
9630.047
9632.439
9639.166
9639.999
9651.084
9651.556
9654.108
9654.275
9655.690
9655.863
9656.059
9656.561
9657.172
9657.371
9658.145
9661.630
9661.838
9662.974
9663.182
9663.360
9665.396
9670.988
9671.322
9671.524
9673.570
9676.818
9676.957
9682.607
9683.466
9684.994
9688.184
9688.485
9693.203
9701.923
9702.073
9707.274
9707.717
9709.623
9710.241
9713.970
9714.374
9715.234
9722.447
9724.624
9726.406
9729.360
9730.699
9731.066
9731.327
9732.069
9737.459
9737.938
9740.727
9747.888
9748.953
9758.650
9759.027
9759.388
9774.336
9775.120
9778.451
9779.958
9790.997
9791.156
9792.110
9793.797
9799.240
9802.337
9809.871
9810.890
9814.633
9819.289
9820.581
9826.957
9830.848
9831.152
9833.196
9835.567
9838.623
9845.478
9846.450
9847.272
9849.376
9851.245
9871.902
9874.921
9875.459
9875.753
9888.457
9889.279
9897.437
9898.556
9900.585
9904.012
9904.398
9917.249
9917.532
9923.342
9924.526
9927.039
9929.119
9933.619
9933.839
9936.818
9937.312
9944.386
9944.915
9947.234
9947.957
9948.127
9949.261
9950.418
9951.130
9952.350
9952.498
9959.413
9962.996
9963.142
9964.447
9964.877
9970.969
9971.271
9973.478
9973.949
9974.560
9975.079
10002.832
10014.064
10015.548
10028.228
10046.206
10061.619
10063.407
10073.263
10085.288
10106.323
10126.898
10161.366
10167.231
10174.806
10183.783
10192.425
10205.839
10211.545
10213.802
10228.815
10233.429
10273.805
10287.600
10295.328
10298.867
10312.298
10330.050
10342.700
10350.193
10375.799
10399.360
10421.218
10430.790
10432.012
10453.365
10471.830
10512.010
10527.657
10575.400
10588.762
10643.675
10655.700
10690.996
10695.090
10700.000
10706.400
10713.680
10723.350
10731.700
10746.152
10753.920
10775.060
10832.257
10834.289
10844.693
10898.680
10926.430
10951.348
10975.330
11009.290
11029.810
11072.450
11090.000
11140.900
11156.030
11214.803
11299.440
11306.335
11312.850
11331.190
11354.235
11377.135
11439.900
11468.320
11538.700
11565.200
11591.700
11627.800
11650.750
11696.350
11716.200
11770.800
11788.000
11865.900
11967.900
11983.300
12000.100
12007.100
12024.200
12031.600
12055.900
12122.600
12135.900
12155.000
12179.900
12196.400
12229.300
12257.800
12287.000
12325.900
12351.600
12400.880
12423.350
12482.700
12502.900
12589.600
12683.000	#	Blend
12752.800
12764.400
12777.100
12782.600
12807.000
12834.600
12905.700
12921.130
12943.180
12972.130
12985.700
13021.600
13052.740
13085.300
13127.820
13156.790
13210.800
13236.520
13301.900
13324.130
13420.800
14086.700
14102.700
14107.000
14134.000
14162.960
14186.060
14266.360
14292.300
14343.000	#	Blend
14356.700
14404.200
14519.000
14604.800
14665.070
14698.400
14755.600
14772.383
14783.700
14833.090
14864.400
14886.170
14931.900
15055.550
15064.000
15088.280
15187.140
15240.900
15287.800
15332.400
15395.300
15431.000	#	Blend
15462.100
15474.200
15500.860
15509.770
15517.900
15540.400
15546.200
15570.160
15597.630
15631.400
15655.000
15657.750
15702.540
15833.270
15972.600
16030.280
16079.800
16128.610
16194.620
16235.370
16302.280
16317.160
16341.760
16351.900
16360.390
16388.500
16414.740
16442.160
16447.600
16479.100
16502.370
16553.810
16612.050
16692.380
16708.850
16733.660
16840.480
16903.680
16955.080
17008.760
17078.360
17123.660
17210.320
17247.900
17282.900
17303.370
17330.870
17351.150
17359.700
17386.700
17427.000
17449.970
17505.900
17528.608
17653.220
17664.880
17698.440
17811.480
17880.300
17993.960
18067.930
18119.000
18254.950
18459.580
18796.411
19193.530
19250.865
19350.100
19399.960
19518.439
19560.000
19593.400
19618.700
19642.500
19677.998
19698.900
19702.080
19737.500
19751.510
19771.860
19839.730
19892.970
20008.200
20033.200
20068.995
20193.227
20275.840
20339.497
20412.680
20499.360
20562.960
20672.840
20728.170
20860.240
20908.450
21062.090
21067.930
21096.600
21104.270
21115.850
21156.120
21176.557
21232.420
21249.590
21278.200
21319.600
21325.970
21505.044
21507.308
21512.100
21537.522
21580.640
21711.170
21802.310
21873.520
21955.637
22052.370
22124.875
22247.810
22311.800
22460.260
22516.727
22691.000
22742.000
22939.947
22986.000
23172.800
23225.000
23401.700
23451.600
23512.000
23580.016
#23582.700
23584.869
23641.800
23677.600
23711.900
23773.900
23837.900
23839.762
23846.436
23865.800
23913.100
23968.200
24002.700
24043.700
24071.400
24078.689
24098.700
24158.000
24190.200
24357.000
24466.000
24509.800
24545.300
24630.500
24679.200
24724.900
24809.600
24842.300
24879.300
24947.000
25035.000
25058.300
25114.900
25162.900
25301.242
25308.863
25327.279
25339.107
17144.619
17148.840
17173.872
17240.859
17244.062
17255.614
17257.690
17258.485
17262.342
17288.351
17288.532
17313.859
17322.967
17323.243
17358.930
17392.615
17424.631
17425.027
17471.257
17500.257
17547.027
17548.160
17558.997
17584.003
17584.906
17618.181
17618.796
17626.018
17627.426
17655.966
17656.376
17678.001
17679.199
17762.328
17762.972
17781.827
17783.348
17878.342
17895.706
17897.577
17915.388
17916.701
17921.954
17924.376
18004.326
18005.508
18019.895
18022.147
18140.630
18142.118
18154.693
18157.352
18179.622
18182.336
18185.463
18186.248
18189.025
18193.007
18194.013
18202.565
18211.704
18211.772
18214.194
18214.283
18227.453
18227.611
18228.443
18228.790
18241.809
18241.856
18262.204
18262.751
18262.814
18264.628
18265.188
18266.124
18287.646
18289.470
18300.434
18303.536
18307.994
18308.756
18308.822
18310.258
18311.219
18312.033
18313.035
18313.099
18313.531
18316.261
18316.289
18317.283
18329.799
18329.907
18337.225
18337.317
18357.499
18357.608
18365.625
18365.856
18367.201
18367.404
18368.514
18369.621
18395.885
18395.953
18401.668
18401.889
18406.582
18406.935
18433.680
18434.115
18436.839
18438.285
18440.800
18477.647
18513.253
18513.922
18514.848
18515.616
18516.569
18518.395
18564.081
18573.891
18574.169
18584.307
18585.336
18596.062
18596.737
18604.725
18605.674
18608.122
18610.379
18615.594
18618.172
18626.359
18630.464
18654.408
18654.865
18661.130
18664.362
18665.688
18689.651
18690.626
18708.560
18709.828
18711.982
18714.720
18745.863
18746.535
18755.323
18756.985
18768.840
18769.234
18794.246
18795.551
18797.525
18800.535
18807.482
18812.153
18825.291
18826.918
18848.567
18849.489
18854.473
18854.799
18857.563
18857.900
18858.283
18859.264
18860.457
18860.846
18862.357
18869.163
18869.570
18871.788
18872.194
18872.542
18876.518
18887.440
18888.092
18888.486
18892.482
18898.826
18899.097
18910.131
18911.809
18914.793
18921.023
18921.611
18930.825
18947.856
18948.149
18958.306
18959.171
18962.894
18964.101
18971.383
18972.172
18973.852
18987.939
18992.191
18995.671
19001.440
19004.055
19004.772
19005.282
19006.731
19017.257
19018.193
19023.640
19037.625
19039.705
19058.643
19059.380
19060.085
19089.278
19090.809
19097.315
19100.258
19121.817
19122.128
19123.991
19127.286
19137.916
19143.964
19158.678
19160.668
19167.978
19177.071
19179.595
19192.047
19199.646
19200.240
19204.232
19208.862
19214.831
19228.219
19230.117
19231.722
19235.831
19239.481
19279.825
19285.721
19286.771
19287.346
19312.157
19313.762
19329.694
19331.880
19335.843
19342.535
19343.289
19368.387
19368.940
19380.287
19382.599
19387.507
19391.569
19400.358
19400.788
19406.606
19407.570
19421.386
19422.419
19426.948
19428.360
19428.692
19430.907
19433.166
19434.557
19436.940
19437.229
19450.734
19457.731
19458.016
19460.565
19461.405
19473.302
19473.892
19478.203
19479.122
19480.316
19481.329
19535.531
19557.467
19560.365
19585.129
19620.240
19650.342
19653.834
19673.083
19696.567
19737.649
19777.832
19845.148
19856.602
19871.396
19888.928
19905.806
19932.004
19943.147
19947.555
19976.876
19985.887
20064.741
20091.683
20106.776
20113.687
20139.918
20174.588
20199.293
20213.927
20263.935
20309.950
20352.639
20371.333
20373.719
20415.422
20451.484
20529.956
20560.514
20653.756
20679.852
20787.097
20810.582
20879.515
20887.511
20897.100
20909.599
20923.817
20942.703
20959.010
20987.235
21002.406
21043.692
21155.398
21159.366
21179.685
21285.122
21339.318
21387.983
21434.819
21501.143
21541.219
21624.495
21658.770
21758.178
21787.727
21902.510
22067.806
22081.272
22093.996
22129.814
22174.821
22219.545
22342.125
22397.629
22535.081
22586.836
22638.590
22709.093
22753.915
22842.972
22881.739
22988.372
23021.964
23174.103
23373.309
23403.385
23436.195
23449.866
23483.263
23497.715
23545.173
23675.438
23701.413
23738.715
23787.345
23819.569
23883.823
23939.483
23996.511
24072.483
24122.675
24218.919
24262.803
24378.713
24418.164
24587.489
24769.899
24906.218
24928.873
24953.676
24964.418
25012.071
25065.974
25204.832
25234.967
25278.031
25334.570
25361.072
25431.185
25492.001
25555.591
25638.632
25695.211
25800.692
25850.924
25978.611
26022.026
26210.822
27511.325
27542.573
27550.971
27603.702
27660.261
27705.375
27862.201
27912.862
28011.879
28038.635
28131.403
28355.607
28523.174
28640.882
28705.975
28817.687
28850.464
28872.566
28969.025
29030.173
29072.690
29162.001
29403.489
29419.992
29467.411
29660.484
29765.478
29857.073
29944.177
30067.021
30136.743
30197.481
30221.113
30273.180
30290.581
30306.459
30350.401
30361.729
30408.522
30462.171
30528.124
30574.215
30579.586
30667.061
30922.376
31194.488
31307.137
31403.849
31499.175
31628.093
31707.678
31838.353
31867.413
31915.457
31935.261
31951.842
32006.741
32057.987
32111.538
32122.163
32183.682
32229.129
32329.591
32443.334
32600.218
32632.384
32680.838
32889.457
33012.887
33113.271
33218.108
33354.037
33442.508
33611.755
33685.149
33753.504
33793.482
33847.189
33886.796
33903.494
33956.225
34034.931
34079.791
34189.023
34233.371
34476.739
34499.511
34565.053
34785.820
34920.226
35142.204
35286.667
35386.407
35651.917
36051.560
36709.391
37484.964
37596.939
37790.745
37888.122
38119.511
38200.680
38265.910
38315.321
38361.803
38431.130
38471.952
38478.162
38547.338
38574.699
38614.443
38746.993
38850.970
39076.015
39124.840
39194.747
39437.372
39598.716
39723.038
39865.964
40035.250
40159.461
40374.057
40482.116
40740.049
40834.203
41134.262
41145.667
41201.660
41216.639
41239.255
41317.902
41357.816
41466.916
41500.449
41556.325
41637.179
41649.619
41999.351
42003.773
42013.131
42062.780
42146.990
42401.915
42579.911
42718.985
42879.359
43068.279
43209.881
43449.973
43574.945
43864.888
43975.168
44315.523
44415.126
44801.716
44891.658
45256.478
45358.425
45703.520
45800.975
45918.936
46051.771
46061.249
46172.435
46242.353
46309.341
46430.427
46555.419
46559.055
46572.090
46609.907
46702.284
46809.895
46877.273
46957.346
47011.444
47025.680
47064.761
47180.574
47243.461
47569.221
47782.098
47867.639
47936.971
48103.367
48198.478
48287.730
48453.149
48517.012
48589.273
48721.491
48893.355
48938.860
49049.400
49143.144
49413.326
49428.209
49464.176
49487.276
