    # Sky emission Line List 8778.607A - 25339.107A
    # units Angstrom
    # wavelengths in IN VACUUM
#
# This list is a composite list of skylines derived from a reverse
# engineered ESO model sky spectrum for the 0.8778 to 1.0um region,
# the ISAAC medium resolution mode sky spectra which has both O2 and
# OH lines identified. The OH lines were based on the work done by
# Rousselot et al., 2000, A & A. (http://www.eso.org/instruments/isaac/tools/oh/list_v2.0.dat)
#
# Because of the very high resolution OH line list from Rousselot et al,
# the list was then modified removing lines that could not be identified
# with the medium resolution mode on ISAAC. Because of the lower
# resolution R=2000 mode of GNIRS, the blended lines will be identified
# by the strongest line in the blend.
#
#Created by P. Ingraham Apr, 06/05
#
8778.607
8780.768
8793.585
8827.885
8829.525
8835.440
8836.503
8836.910
8838.885
8852.202
8852.295
8865.263
8869.927
8870.068
8888.341
8905.589
8921.982
8922.185
8945.856
8960.705
8984.653
8985.233
8990.782
9003.586
9004.048
9021.086
9021.401
9025.099
9025.820
9040.433
9040.643
9051.716
9052.329
9094.894
9095.224
9104.878
9105.657
9154.297
9163.188
9164.146
9173.266
9173.938
9176.628
9177.868
9218.805
9219.410
9226.777
9227.930
9288.597
9289.359
9295.798
9297.159
9308.562
9309.952
9311.553
9311.955
9313.377
9315.416
9315.931
9320.310
9324.989
9325.024
9326.264
9326.310
9333.053
9333.134
9333.560
9333.738
9340.404
9340.428
9350.847
9351.127
9351.159
9352.088
9352.375
9352.854
9363.874
9364.808
9370.422
9372.010
9374.293
9374.683
9374.717
9375.452
9375.944
9376.361
9376.874
9376.907
9377.128
9378.526
9378.540
9379.049
9385.458
9385.513
9389.260
9389.307
9399.641
9399.697
9403.802
9403.920
9404.609
9404.713
9405.281
9405.848
9419.296
9419.331
9422.257
9422.370
9424.773
9424.954
9438.648
9438.871
9440.266
9441.006
9442.294
9461.161
9479.392
9479.735
9480.209
9480.602
9481.090
9482.025
9505.418
9510.441
9510.583
9515.774
9516.301
9521.793
9522.139
9526.229
9526.715
9527.968
9529.124
9531.794
9533.114
9537.306
9539.408
9551.668
9551.902
9555.110
9556.765
9557.444
9569.714
9570.213
9579.396
9580.045
9581.148
9582.550
9598.496
9598.840
9603.340
9604.191
9610.261
9610.463
9623.270
9623.938
9624.949
9626.490
9630.047
9632.439
9639.166
9639.999
9651.084
9651.556
9654.108
9654.275
9655.690
9655.863
9656.059
9656.561
9657.172
9657.371
9658.145
9661.630
9661.838
9662.974
9663.182
9663.360
9665.396
9670.988
9671.322
9671.524
9673.570
9676.818
9676.957
9682.607
9683.466
9684.994
9688.184
9688.485
9693.203
9701.923
9702.073
9707.274
9707.717
9709.623
9710.241
9713.970
9714.374
9715.234
9722.447
9724.624
9726.406
9729.360
9730.699
9731.066
9731.327
9732.069
9737.459
9737.938
9740.727
9747.888
9748.953
9758.650
9759.027
9759.388
9774.336
9775.120
9778.451
9779.958
9790.997
9791.156
9792.110
9793.797
9799.240
9802.337
9809.871
9810.890
9814.633
9819.289
9820.581
9826.957
9830.848
9831.152
9833.196
9835.567
9838.623
9845.478
9846.450
9847.272
9849.376
9851.245
9871.902
9874.921
9875.459
9875.753
9888.457
9889.279
9897.437
9898.556
9900.585
9904.012
9904.398
9917.249
9917.532
9923.342
9924.526
9927.039
9929.119
9933.619
9933.839
9936.818
9937.312
9944.386
9944.915
9947.234
9947.957
9948.127
9949.261
9950.418
9951.130
9952.350
9952.498
9959.413
9962.996
9963.142
9964.447
9964.877
9970.969
9971.271
9973.478
9973.949
9974.560
9975.079
10002.832
10014.064
10015.548
10028.228
10046.206
10061.619
10063.407
10073.263
10085.288
10106.323
10126.898
10161.366
10167.231
10174.806
10183.783
10192.425
10205.839
10211.545
10213.802
10228.815
10233.429
10273.805
10287.600
10295.328
10298.867
10312.298
10330.050
10342.700
10350.193
10375.799
10399.360
10421.218
10430.790
10432.012
10453.365
10471.830
10512.010
10527.657
10575.400
10588.762
10643.675
10655.700
10690.996
10695.090
10700.000
10706.400
10713.680
10723.350
10731.700
10746.152
10753.920
10775.060
10832.257
10834.289
10844.693
10898.680
10926.430
10951.348
10975.330
11009.290
11029.810
11072.450
11090.000
11140.900
11156.030
11214.803
11299.440
11306.335
11312.850
11331.190
11354.235
11377.135
11439.900
11468.320
11538.700
11565.200
11591.700
11627.800
11650.750
11696.350
11716.200
11770.800
11788.000
11865.900
11967.900
11983.300
12000.100
12007.100
12024.200
12031.600
12055.900
12122.600
12135.900
12155.000
12179.900
12196.400
12229.300
12257.800
12287.000
12325.900
12351.600
12400.880
12423.350
12482.700
12502.900
12589.600
12683.000	#	Blend
12752.800
12764.400
12777.100
12782.600
12807.000
12834.600
12905.700
12921.130
12943.180
12972.130
12985.700
13021.600
13052.740
13085.300
13127.820
13156.790
13210.800
13236.520
13301.900
13324.130
13420.800
14086.700
14102.700
14107.000
14134.000
14162.960
14186.060
14266.360
14292.300
14343.000	#	Blend
14356.700
14404.200
14519.000
14604.800
14665.070
14698.400
14755.600
14772.383
14783.700
14833.090
14864.400
14886.170
14931.900
15055.550
15064.000
15088.280
15187.140
15240.900
15287.800
15332.400
15395.300
15431.000	#	Blend
15462.100
15474.200
15500.860
15509.770
15517.900
15540.400
15546.200
15570.160
15597.630
15631.400
15655.000
15657.750
15702.540
15833.270
15972.600
16030.280
16079.800
16128.610
16194.620
16235.370
16302.280
16317.160
16341.760
16351.900
16360.390
16388.500
16414.740
16442.160
16447.600
16479.100
16502.370
16553.810
16612.050
16692.380
16708.850
16733.660
16840.480
16903.680
16955.080
17008.760
17078.360
17123.660
17210.320
17247.900
17282.900
17303.370
17330.870
17351.150
17359.700
17386.700
17427.000
17449.970
17505.900
17528.608
17653.220
17664.880
17698.440
17811.480
17880.300
17993.960
18067.930
18119.000
18254.950
18459.580
18796.411
19193.530
19250.865
19350.100
19399.960
19518.439
19560.000
19593.400
19618.700
19642.500
19677.998
19698.900
19702.080
19737.500
19751.510
19771.860
19839.730
19892.970
20008.200
20033.200
20068.995
20193.227
20275.840
20339.497
20412.680
20499.360
20562.960
20672.840
20728.170
20860.240
20908.450
21062.090
21067.930
21096.600
21104.270
21115.850
21156.120
21176.557
21232.420
21249.590
21278.200
21319.600
21325.970
21505.044
21507.308
21512.100
21537.522
21580.640
21711.170
21802.310
21873.520
21955.637
22052.370
22124.875
22247.810
22311.800
22460.260
22516.727
22691.000
22742.000
22939.947
22986.000
23172.800
23225.000
23401.700
23451.600
23512.000
23580.016
#23582.700
23584.869
23641.800
23677.600
23711.900
23773.900
23837.900
23839.762
23846.436
23865.800
23913.100
23968.200
24002.700
24043.700
24071.400
24078.689
24098.700
24158.000
24190.200
24357.000
24466.000
24509.800
24545.300
24630.500
24679.200
24724.900
24809.600
24842.300
24879.300
24947.000
25035.000
25058.300
25114.900
25162.900
25301.242
25308.863
25327.279
25339.107
